Voltage,Current,Temperature,Time,Voltage_smooth,Current_smooth,Temperature_smooth
4.246711253516259,0.000252388610586,6.212696115916043,0.0,4.231476627152345,-0.021123877736586028,6.033353815975919
4.241379202519385,3.4347211057436124e-05,6.107293572859801,1.0,4.2268824048337885,-0.0285175051586569,5.9786879126452614
4.23604715152251,-0.00018369418847112774,6.001891029803559,2.0,4.222288182515232,-0.03591113258072777,5.924022009314604
4.230715100525636,-0.0004017355879996916,5.896488486747317,3.0,4.2176939601966765,-0.043304760002798634,5.869356105983947
4.225383049528761,-0.0006197769875282554,5.791085943691075,4.0,4.21309973787812,-0.05069838742486951,5.814690202653289
4.220050998531888,-0.0008378183870568193,5.685683400634833,5.0,4.208505515559564,-0.058092014846940376,5.760024299322633
4.2147189475350135,-0.0010558597865853831,5.580280857578591,6.0,4.203911293241007,-0.06548564226901124,5.705358395991976
4.209386896538139,-0.001273901186113947,5.474878314522349,7.0,4.199317070922452,-0.07287926969108212,5.650692492661318
4.204054845541265,-0.0014919425856425108,5.3694757714661066,8.0,4.194722848603895,-0.080272897113153,5.596026589330661
4.19872279454439,-0.001709983985171075,5.264073228409865,9.0,4.190128626285339,-0.08766652453522386,5.5413606860000035
4.184984792819075,-0.07266975849962545,5.258077877130042,10.0,4.178212601122189,-0.1455481419178171,5.515886053063242
4.171246791093759,-0.14362953301407985,5.252082525850218,11.0,4.166296575959038,-0.20342975930041035,5.49041142012648
4.157508789368444,-0.21458930752853422,5.246087174570396,12.0,4.154380550795888,-0.2613113766830036,5.4649367871897185
4.143770787643129,-0.2855490820429886,5.240091823290572,13.0,4.142464525632738,-0.3191929940655968,5.439462154252957
4.130032785917813,-0.356508856557443,5.234096472010749,14.0,4.130548500469587,-0.3770746114481901,5.413987521316195
4.116294784192498,-0.42746863107189736,5.228101120730925,15.0,4.118632475306437,-0.43495622883078333,5.3885128883794335
4.1025567824671825,-0.49842840558635176,5.222105769451103,16.0,4.106716450143287,-0.49283784621337656,5.363038255442671
4.088818780741867,-0.5693881801008062,5.216110418171279,17.0,4.094800424980136,-0.5507194635959698,5.337563622505909
4.075080779016552,-0.6403479546152605,5.210115066891456,18.0,4.082884399816986,-0.608601080978563,5.312088989569148
4.0613427772912365,-0.711307729129715,5.204119715611633,19.0,4.070968374653835,-0.6664826983611563,5.286614356632386
4.0476047755659215,-0.7822675036441693,5.198124364331809,20.0,4.059052349490685,-0.7243643157437495,5.261139723695624
4.033866773840606,-0.8532272781586236,5.192129013051987,21.0,4.047136324327535,-0.7822459331263427,5.235665090758863
4.0201287721152905,-0.9241870526730781,5.186133661772163,22.0,4.035220299164384,-0.840127550508936,5.210190457822101
4.0063907703899755,-0.9951468271875326,5.18013831049234,23.0,4.023304274001234,-0.8980091678915292,5.184715824885339
4.004856866157534,-0.9951904916782356,5.18484295597818,24.0,4.020554605260481,-0.9055074637566731,5.189207721234809
4.003322961925093,-0.9952341561689385,5.189547601464019,25.0,4.0178049365197275,-0.9130057596218172,5.193699617584279
4.001789057692652,-0.9952778206596415,5.194252246949859,26.0,4.0150552677789735,-0.9205040554869611,5.198191513933749
4.000255153460211,-0.9953214851503446,5.198956892435699,27.0,4.01230559903822,-0.9280023513521052,5.2026834102832185
3.9987212492277697,-0.9953651496410475,5.203661537921539,28.0,4.009555930297467,-0.9355006472172491,5.2071753066326885
3.9971873449953286,-0.9954088141317505,5.208366183407378,29.0,4.006806261556714,-0.9429989430823932,5.2116672029821585
3.995653440762887,-0.9954524786224536,5.213070828893218,30.0,4.00405659281596,-0.9504972389475371,5.2161590993316285
3.994119536530446,-0.9954961431131566,5.217775474379057,31.0,4.001306924075207,-0.9579955348126812,5.2206509956810985
3.9925856322980047,-0.9955398076038595,5.222480119864898,32.0,3.998557255334454,-0.9654938306778251,5.2251428920305685
3.9910517280655635,-0.9955834720945625,5.227184765350737,33.0,3.9958075865937004,-0.9729921265429692,5.229634788380038
3.9895178238331224,-0.9956271365852656,5.231889410836577,34.0,3.9930579178529473,-0.9804904224081131,5.234126684729508
3.987983919600681,-0.9956708010759685,5.236594056322416,35.0,3.9903082491121937,-0.9879887182732572,5.238618581078978
3.98645001536824,-0.9957144655666715,5.241298701808256,36.0,3.9875585803714406,-0.9954870141384011,5.243110477428448
3.986190499361503,-0.9956303033999886,5.266804623908278,37.0,3.9863546354621886,-0.9954497020607375,5.240833870440946
3.9859309833547654,-0.9955461412333056,5.2923105460083,38.0,3.9851506905529366,-0.9954123899830738,5.238557263453445
3.9856714673480282,-0.9954619790666228,5.317816468108322,39.0,3.9839467456436846,-0.9953750779054101,5.236280656465944
3.9854119513412907,-0.9953778168999399,5.343322390208344,40.0,3.982742800734432,-0.9953377658277464,5.234004049478442
3.9851524353345535,-0.9952936547332569,5.368828312308366,41.0,3.98153885582518,-0.9953004537500827,5.231727442490941
3.9848929193278164,-0.995209492566574,5.394334234408388,42.0,3.980334910915928,-0.995263141672419,5.22945083550344
3.984633403321079,-0.9951253303998912,5.41984015650841,43.0,3.979130966006676,-0.9952258295947554,5.2271742285159375
3.9843738873143417,-0.9950411682332082,5.445346078608432,44.0,3.977927021097424,-0.9951885175170917,5.224897621528436
3.9841143713076046,-0.9949570060665253,5.470852000708454,45.0,3.976723076188172,-0.995151205439428,5.222621014540935
3.983854855300867,-0.9948728438998423,5.496357922808476,46.0,3.9755191312789195,-0.9951138933617643,5.2203444075534335
3.98359533929413,-0.9947886817331595,5.521863844908498,47.0,3.9743151863696675,-0.9950765812841006,5.218067800565932
3.9833358232873923,-0.9947045195664765,5.54736976700852,48.0,3.9731112414604155,-0.9950392692064369,5.215791193578431
3.983076307280655,-0.9946203573997936,5.572875689108542,49.0,3.9719072965511635,-0.9950019571287733,5.21351458659093
3.9541347271178378,-0.9954535413261858,4.932690617348016,50.0,3.9710491820819334,-0.9950202980391717,5.438835531849949
3.955847856461958,-0.9954761779017123,5.025744236198557,51.0,3.96991796066301,-0.9950739638961968,5.41663379867514
3.9575609858060785,-0.9954988144772389,5.118797855049097,52.0,3.9687867392440874,-0.9951276297532221,5.394432065500332
3.9592741151501993,-0.9955214510527655,5.211851473899638,53.0,3.9676555178251647,-0.9951812956102473,5.372230332325524
3.9609872444943197,-0.9955440876282919,5.304905092750178,54.0,3.9665242964062415,-0.9952349614672724,5.350028599150715
3.96270037383844,-0.9955667242038184,5.397958711600719,55.0,3.9653930749873183,-0.9952886273242976,5.327826865975906
3.964413503182561,-0.995589360779345,5.491012330451259,56.0,3.9642618535683956,-0.9953422931813227,5.305625132801097
3.9661266325266813,-0.9956119973548716,5.5840659493018,57.0,3.963130632149473,-0.995395959038348,5.283423399626289
3.9678397618708017,-0.9956346339303981,5.6771195681523405,58.0,3.9619994107305496,-0.9954496248953731,5.261221666451481
3.969552891214922,-0.9956572705059246,5.7701731870028805,59.0,3.9608681893116264,-0.9955032907523983,5.239019933276672
3.9712660205590424,-0.9956799070814512,5.863226805853421,60.0,3.9597369678927037,-0.9955569566094236,5.216818200101864
3.9729791499031633,-0.9957025436569777,5.956280424703961,61.0,3.958605746473781,-0.9956106224664487,5.194616466927055
3.9746922792472836,-0.9957251802325042,6.049334043554502,62.0,3.9574745250548578,-0.9956642883234739,5.172414733752246
3.9483542294516085,-0.995752509466363,4.948397790746429,63.0,3.9598302336721614,-0.9954663849769828,5.496764828293185
3.9511869432555824,-0.9956618672781576,5.055499062516714,64.0,3.9589554714453903,-0.9954045663335698,5.476901044966879
3.9540196570595567,-0.9955712250899523,5.1626003342869975,65.0,3.9580807092186197,-0.9953427476901567,5.457037261640574
3.9568523708635306,-0.995480582901747,5.269701606057282,66.0,3.9572059469918486,-0.9952809290467437,5.437173478314268
3.9596850846675045,-0.9953899407135417,5.376802877827566,67.0,3.9563311847650775,-0.9952191104033307,5.417309694987963
3.962517798471479,-0.9952992985253364,5.48390414959785,68.0,3.955456422538307,-0.9951572917599176,5.397445911661657
3.9653505122754527,-0.9952086563371311,5.591005421368134,69.0,3.954581660311536,-0.9950954731165046,5.3775821283353515
3.9681832260794265,-0.9951180141489258,5.698106693138419,70.0,3.9537068980847647,-0.9950336544730916,5.3577183450090455
3.971015939883401,-0.9950273719607204,5.805207964908703,71.0,3.952832135857994,-0.9949718358296785,5.3378545616827395
3.9738486536873747,-0.9949367297725151,5.912309236678987,72.0,3.951957373631223,-0.9949100171862655,5.317990778356434
3.9766813674913486,-0.9948460875843098,6.019410508449272,73.0,3.951082611404452,-0.9948481985428524,5.298126995030128
3.979514081295323,-0.9947554453961045,6.1265117802195554,74.0,3.9502078491776813,-0.9947863798994394,5.278263211703823
3.982346795099297,-0.9946648032078992,6.23361305198984,75.0,3.9493330869509102,-0.9947245612560264,5.258399428377517
3.9393906728568666,-0.9943454325245813,5.2067766979993735,76.0,3.9480716275120837,-0.9950271535756161,5.417468297037586
3.9402351244676463,-0.9945098782684302,5.23524239572921,77.0,3.9472771863561755,-0.9950820657810242,5.411808703123929
3.9410795760784256,-0.9946743240122792,5.263708093459047,78.0,3.946482745200267,-0.9951369779864323,5.40614910921027
3.9419240276892054,-0.9948387697561281,5.292173791188883,79.0,3.9456883040443587,-0.9951918901918404,5.400489515296613
3.942768479299985,-0.9950032154999771,5.3206394889187205,80.0,3.94489386288845,-0.9952468023972485,5.3948299213829545
3.9436129309107644,-0.9951676612438259,5.349105186648557,81.0,3.944099421732542,-0.9953017146026566,5.389170327469297
3.944457382521544,-0.9953321069876749,5.377570884378394,82.0,3.943304980576633,-0.9953566268080647,5.38351073355564
3.945301834132324,-0.9954965527315238,5.40603658210823,83.0,3.942510539420725,-0.9954115390134728,5.377851139641981
3.9461462857431036,-0.9956609984753728,5.4345022798380676,84.0,3.9417160982648163,-0.9954664512188809,5.372191545728324
3.946990737353883,-0.9958254442192217,5.462967977567904,85.0,3.940921657108908,-0.995521363424289,5.366531951814666
3.9478351889646626,-0.9959898899630707,5.491433675297741,86.0,3.9401272159529994,-0.9955762756296971,5.360872357901008
3.9486796405754423,-0.9961543357069196,5.519899373027577,87.0,3.939332774797091,-0.9956311878351052,5.355212763987351
3.9495240921862216,-0.9963187814507686,5.548365070757415,88.0,3.9385383336411826,-0.9956861000405133,5.349553170073692
3.9503685437970013,-0.9964832271946175,5.576830768487251,89.0,3.9377438924852743,-0.9957410122459214,5.343893576160035
3.9193717975244056,-0.9956358991361975,5.17336255268179,90.0,3.938831578947818,-0.9955548702621075,5.467161624867492
3.9212317731770368,-0.9955987527521011,5.207110605145473,91.0,3.937975134152074,-0.9955311979843817,5.46050898149371
3.923091748829668,-0.9955616063680046,5.240858657609157,92.0,3.9371186893563297,-0.9955075257066559,5.4538563381199285
3.924951724482299,-0.9955244599839081,5.27460671007284,93.0,3.9362622445605857,-0.9954838534289301,5.447203694746146
3.9268117001349303,-0.9954873135998117,5.308354762536522,94.0,3.9354057997648417,-0.9954601811512043,5.440551051372364
3.9286716757875615,-0.9954501672157152,5.342102815000206,95.0,3.9345493549690973,-0.9954365088734785,5.433898407998583
3.9305316514401927,-0.9954130208316188,5.375850867463889,96.0,3.9336929101733533,-0.9954128365957526,5.4272457646248
3.932391627092824,-0.9953758744475223,5.409598919927572,97.0,3.9328364653776093,-0.9953891643180269,5.420593121251018
3.934251602745455,-0.9953387280634258,5.4433469723912555,98.0,3.931980020581865,-0.9953654920403011,5.413940477877237
3.9361115783980862,-0.9953015816793294,5.477095024854938,99.0,3.931123575786121,-0.9953418197625753,5.407287834503455
3.9379715540507174,-0.9952644352952329,5.510843077318621,100.0,3.930267130990377,-0.9953181474848495,5.400635191129673
3.9398315297033486,-0.9952272889111364,5.5445911297823045,101.0,3.9294106861946325,-0.9952944752071237,5.393982547755891
3.94169150535598,-0.99519014252704,5.578339182245988,102.0,3.9285542413988885,-0.9952708029293978,5.387329904382109
3.9102591171339567,-0.9954905495440235,5.261977627671381,103.0,3.930744494611587,-0.9953241665736615,5.509893210283066
3.91260085353676,-0.9954509368888289,5.3116844548832125,104.0,3.9300384171974985,-0.9953455489138884,5.501795803170961
3.9149425899395625,-0.9954113242336342,5.361391282095044,105.0,3.92933233978341,-0.9953669312541152,5.493698396058856
3.917284326342365,-0.9953717115784395,5.411098109306875,106.0,3.9286262623693213,-0.9953883135943422,5.485600988946752
3.9196260627451682,-0.9953320989232449,5.460804936518706,107.0,3.9279201849552328,-0.9954096959345691,5.477503581834648
3.9219677991479713,-0.9952924862680503,5.510511763730537,108.0,3.927214107541144,-0.9954310782747959,5.469406174722542
3.924309535550774,-0.9952528736128556,5.560218590942368,109.0,3.9265080301270556,-0.9954524606150228,5.461308767610438
3.9266512719535767,-0.9952132609576609,5.609925418154199,110.0,3.925801952712967,-0.9954738429552497,5.453211360498334
3.9289930083563798,-0.9951736483024664,5.65963224536603,111.0,3.9250958752988785,-0.9954952252954765,5.445113953386229
3.931334744759183,-0.9951340356472718,5.709339072577861,112.0,3.92438979788479,-0.9955166076357034,5.4370165462741245
3.9336764811619855,-0.9950944229920771,5.759045899789692,113.0,3.9236837204707014,-0.9955379899759303,5.42891913916202
3.936018217564788,-0.9950548103368824,5.808752727001523,114.0,3.922977643056613,-0.9955593723161572,5.420821732049915
3.9383599539675913,-0.9950151976816878,5.858459554213354,115.0,3.922271565642524,-0.9955807546563841,5.412724324937811
3.909443052618752,-0.9955168231621833,5.244072655201396,116.0,3.923222078276296,-0.9951311730424225,5.551126015405965
3.9112457138895804,-0.9954022480536431,5.29295004865398,117.0,3.922325662358988,-0.9951163964643792,5.540827927983663
3.913048375160409,-0.9952876729451028,5.341827442106564,118.0,3.9214292464416802,-0.9951016198863359,5.5305298405613605
3.914851036431237,-0.9951730978365626,5.3907048355591485,119.0,3.920532830524372,-0.9950868433082927,5.520231753139059
3.916653697702065,-0.9950585227280224,5.439582229011732,120.0,3.919636414607064,-0.9950720667302493,5.509933665716756
3.9184563589728936,-0.9949439476194822,5.488459622464315,121.0,3.918739998689756,-0.995057290152206,5.499635578294454
3.920259020243722,-0.9948293725109421,5.5373370159169,122.0,3.917843582772448,-0.9950425135741627,5.489337490872151
3.9220616815145504,-0.9947147974024018,5.586214409369484,123.0,3.91694716685514,-0.9950277369961195,5.479039403449849
3.9238643427853788,-0.9946002222938616,5.635091802822068,124.0,3.916050750937832,-0.9950129604180762,5.468741316027547
3.9256670040562067,-0.9944856471853214,5.683969196274651,125.0,3.915154335020524,-0.9949981838400328,5.458443228605244
3.927469665327035,-0.9943710720767811,5.732846589727235,126.0,3.914257919103216,-0.9949834072619895,5.448145141182942
3.9292723265978635,-0.9942564969682409,5.78172398317982,127.0,3.913361503185908,-0.9949686306839463,5.437847053760639
3.931074987868692,-0.9941419218597007,5.830601376632403,128.0,3.9124650872686,-0.994953854105903,5.427548966338337
3.916681392322613,-0.9955780674581776,5.148270918797901,129.0,3.91272018011826,-0.9947867894902968,5.560171762343488
3.894464880370484,-0.99518718320967,5.401821957457576,130.0,3.9152572529328507,-0.9950037381554271,5.56075097373604
3.897185276007274,-0.9951770401598631,5.440580857606184,131.0,3.914353081442526,-0.995050422695728,5.553878681571118
3.8999056716440634,-0.9951668971100562,5.479339757754793,132.0,3.913448909952201,-0.995097107236029,5.547006389406197
3.902626067280853,-0.9951567540602493,5.5180986579034,133.0,3.912544738461876,-0.9951437917763298,5.540134097241275
3.9053464629176426,-0.9951466110104424,5.556857558052008,134.0,3.9116405669715513,-0.9951904763166307,5.533261805076353
3.9080668585544323,-0.9951364679606355,5.595616458200617,135.0,3.9107363954812264,-0.9952371608569317,5.526389512911431
3.9107872541912214,-0.9951263249108286,5.634375358349224,136.0,3.9098322239909016,-0.9952838453972326,5.5195172207465095
3.913507649828011,-0.9951161818610217,5.673134258497833,137.0,3.9089280525005767,-0.9953305299375336,5.5126449285815875
3.9162280454648006,-0.9951060388112148,5.711893158646441,138.0,3.908023881010252,-0.9953772144778344,5.5057726364166655
3.9189484411015902,-0.9950958957614079,5.7506520587950485,139.0,3.907119709519927,-0.9954238990181353,5.4989003442517435
3.92166883673838,-0.995085752711601,5.789410958943657,140.0,3.906215538029602,-0.9954705835584363,5.492028052086822
3.9243892323751695,-0.9950756096617941,5.828169859092265,141.0,3.9053113665392774,-0.9955172680987372,5.4851557599219
3.909464718084642,-0.9959282596966924,5.224925019784406,142.0,3.9057686811960712,-0.9955601248526684,5.5998179092839395
3.8874469044953894,-0.9958825097319075,5.482883764565057,143.0,3.908463780574641,-0.9956172741039099,5.6056306050136975
3.8916650603183838,-0.995865385961904,5.485868360558393,144.0,3.90746477312595,-0.995630832499012,5.604644120759158
3.8958832161413777,-0.9958482621919006,5.48885295655173,145.0,3.9064657656772592,-0.9956443908941142,5.603657636504618
3.900101371964372,-0.9958311384218971,5.491837552545066,146.0,3.905466758228568,-0.9956579492892162,5.602671152250079
3.904319527787366,-0.9958140146518937,5.494822148538402,147.0,3.904467750779877,-0.9956715076843183,5.601684667995539
3.9085376836103602,-0.9957968908818902,5.497806744531738,148.0,3.903468743331186,-0.9956850660794205,5.600698183741
3.912755839433354,-0.9957797671118868,5.500791340525075,149.0,3.902469735882495,-0.9956986244745226,5.59971169948646
3.9169739952563485,-0.9957626433418832,5.503775936518411,150.0,3.901470728433804,-0.9957121828696248,5.59872521523192
3.9211921510793424,-0.9957455195718798,5.5067605325117475,151.0,3.900471720985113,-0.9957257412647269,5.5977387309773805
3.9254103069023367,-0.9957283958018763,5.509745128505084,152.0,3.8994727135364218,-0.995739299659829,5.596752246722842
3.9296284627253306,-0.9957112720318729,5.512729724498421,153.0,3.898473706087731,-0.9957528580549312,5.595765762468302
3.933846618548325,-0.9956941482618694,5.515714320491757,154.0,3.89747469863904,-0.9957664164500333,5.594779278213762
3.9023920604108007,-0.9951010185482678,5.723534686470537,155.0,3.899473763470032,-0.995341741688611,5.5636293979418685
3.902933862313565,-0.9963070386878776,5.866002749430121,156.0,3.899674473162843,-0.9952823919885055,5.585593353395805
3.859116980202247,-0.9946712922583586,5.234628448837317,157.0,3.904706454609657,-0.9951670585754067,5.692948709456461
3.8659445176437797,-0.9946126717676944,5.256846516252675,158.0,3.903373554988622,-0.9951725078737158,5.689030441722953
3.8727720550853126,-0.9945540512770301,5.279064583668031,159.0,3.9020406553675873,-0.9951779571720251,5.685112173989444
3.879599592526845,-0.9944954307863659,5.301282651083389,160.0,3.900707755746552,-0.9951834064703342,5.6811939062559365
3.886427129968378,-0.9944368102957017,5.323500718498746,161.0,3.899374856125517,-0.9951888557686434,5.677275638522429
3.8932546674099107,-0.9943781898050374,5.345718785914103,162.0,3.898041956504482,-0.9951943050669525,5.673357370788921
3.900082204851443,-0.9943195693143733,5.36793685332946,163.0,3.8967090568834473,-0.9951997543652618,5.669439103055412
3.906909742292976,-0.9942609488237091,5.390154920744817,164.0,3.895376157262412,-0.9952052036635709,5.665520835321904
3.9137372797345087,-0.9942023283330449,5.4123729881601745,165.0,3.894043257641377,-0.99521065296188,5.661602567588396
3.9205648171760417,-0.9941437078423806,5.434591055575531,166.0,3.8927103580203424,-0.9952161022601893,5.657684299854887
